Encoder 1,Encoder 2,Control Signal 1,Control Signal 2,PID Speed Control,Motor Speed 1,Motor Speed 2
0,0,1010.0,1010.0,0.0,100,100
25,24,9.495000000000001,9.596,-0.010301999999999908,29.505302,29.585698
38,41,7.773000000000001,7.673,0.020198999999999696,27.752801,27.693199
54,61,8.559,8.155,0.031206999999999843,28.527793,28.186207
69,79,7.939,7.834000000000001,-0.029286999999999962,27.968287,27.804713000000003
86,96,8.424,7.914,0.04202800000000011,28.381972,27.956028
106,117,8.207,8.197,-0.04896199999999966,28.255962,28.148038
122,133,8.190000000000001,7.978,0.02165199999999981,28.168348,27.999652
135,148,8.172999999999998,8.161000000000001,-0.0187360000000003,28.191736,28.142264
154,167,8.559999999999999,8.346,0.021880000000000163,28.53812,28.36788
166,183,8.042,7.8260000000000005,0.0020980000000002334,28.039902,27.828098
182,199,8.327,8.311,-0.018286000000000302,28.345285999999998,28.292714
198,214,8.413,8.296,0.012032000000000253,28.400968,28.308032
210,227,8.096,8.281,-0.028754999999999975,28.124755,28.252245
225,247,8.887,8.468,0.06286799999999991,28.824132000000002,28.530867999999998
240,266,7.868,7.445,0.0032950000000001264,27.864705,27.448295
261,287,8.455,8.027999999999999,0.0037259999999997677,28.451273999999998,28.031726
275,302,7.734999999999999,7.808999999999999,-0.04734899999999977,27.782349,27.761650999999997
291,320,8.321,8.295,0.012876999999999417,28.308123,28.307877
297,327,8.307,7.877,0.0441110000000007,28.262889,27.921111
306,343,8.899,8.566,-0.005753000000000497,28.904753000000003,28.560247
318,360,8.891,8.353,0.025189999999999817,28.86581,28.37819
337,376,8.176,7.835,-0.014865999999999576,28.190866,27.820134000000003
352,391,7.757,7.715999999999999,-0.025425000000000447,27.782425,27.690575
365,405,8.243,8.302999999999999,-0.005685999999999206,28.248686000000003,28.297313999999997
378,422,8.431000000000001,8.29,0.02485599999999969,28.406144,28.314856
391,440,8.419,7.974,0.03590499999999984,28.383095,28.009905
405,458,8.306,7.756000000000001,0.016659999999999675,28.28934,27.77266
416,470,8.091000000000001,7.8389999999999995,-0.02368599999999948,28.114686,27.815314
428,482,8.177,7.923,0.0065699999999995215,28.17043,27.929570000000002
443,504,8.364999999999998,8.209999999999999,-0.003474000000000036,28.368474,28.206526
455,523,8.353000000000002,7.287999999999999,0.09940100000000036,28.253599,27.387401
469,544,8.24,7.568999999999999,-0.030721999999999843,28.270722000000003,27.538278
482,558,7.924000000000001,7.348000000000001,-0.0003410000000002508,27.924341,27.347659
495,576,8.413,8.337,-0.04126500000000001,28.454265,28.295735
510,593,8.099,7.417,0.0706229999999998,28.028377,27.487623000000003
528,615,8.084999999999999,7.7,-0.01958899999999971,28.104589,27.680411
541,632,7.667000000000001,7.380000000000001,0.0004999999999997368,27.666500000000003,27.3805
552,646,8.254999999999999,7.662999999999999,0.041696999999999956,28.213303,27.704697
569,670,8.445,7.848000000000001,0.012299000000000249,28.432701,27.860298999999998
582,683,7.526,6.9239999999999995,0.012905999999999892,27.513094,26.936906
595,701,8.012,8.011,-0.04829399999999992,28.060294,27.962706
612,722,8.2,7.594,0.07351699999999968,28.126483,27.667517
625,739,7.885,7.274000000000001,0.014132999999999885,27.870866999999997,27.288133000000002
638,756,7.769,7.254,0.004452000000000334,27.764547999999998,27.258452
654,771,8.258000000000001,7.638,0.025277000000000396,28.232723000000004,27.663276999999997
673,788,7.338000000000001,7.521,-0.06650900000000044,27.404509,27.454491
686,805,7.823,7.807,0.0339059999999998,27.789094000000002,27.840906
699,819,7.909000000000001,7.489999999999999,0.05512800000000022,27.853872,27.545128
716,835,7.895,7.776,-0.01535300000000008,27.910353,27.760647
729,849,7.779999999999999,7.5600000000000005,0.0250679999999999,27.754932,27.585068000000003
749,868,7.866,7.645,0.015290000000000114,27.85071,27.66029
762,882,7.246,7.327000000000001,-0.015392999999999971,27.261393,27.311607000000002
775,896,8.135,7.712999999999999,0.06603199999999965,28.068967999999998,27.779032
789,915,7.619,7.598000000000001,-0.02474799999999964,27.643748,27.573252
804,932,7.906,7.179,0.08738499999999957,27.818614999999998,27.266385000000003
819,948,7.59,7.361999999999999,-0.03338599999999954,27.623386,27.328613999999998
836,969,7.978000000000001,7.446,0.0477500000000002,27.93025,27.49375
844,981,7.663,7.329,-0.002314000000000406,27.665314000000002,27.326686
864,999,7.648,7.312,0.018023999999999877,27.629976,27.330024
876,1014,7.633000000000001,7.295000000000001,0.018364000000000238,27.614636,27.313364000000004
891,1027,7.517000000000001,7.5809999999999995,-0.022501999999999755,27.539502000000002,27.558498
905,1041,7.702999999999999,7.567,0.03803399999999957,27.664966,27.605034
924,1059,7.79,7.552999999999999,0.02847200000000026,27.761528,27.581471999999998
937,1076,7.272000000000001,7.236,-0.0018930000000000544,27.273893,27.234107
952,1093,7.759000000000001,7.219,0.06965099999999977,27.689349,27.288651
961,1104,7.5440000000000005,7.202000000000001,-0.0004050000000000477,27.544405,27.201595
980,1122,8.135,7.8919999999999995,0.009638999999999974,28.125360999999998,27.901639
992,1137,7.015000000000001,6.771000000000001,0.019884000000000113,26.995116,26.790884000000002
1006,1154,7.5,7.255000000000001,0.020129999999999756,27.479870000000002,27.27513
1022,1171,8.091,7.440999999999999,0.061585000000000466,28.029415,27.502585
1033,1185,7.375,7.023000000000001,-0.00866100000000019,27.383661,27.014339
1051,1204,7.258,7.005,0.011392999999999973,27.246607,27.016392999999997
1062,1219,7.6450000000000005,7.391,0.021648000000000115,27.623352,27.412647999999997
1076,1234,7.9350000000000005,7.478000000000001,0.042507999999999935,27.892492,27.520508000000003
1090,1250,7.42,6.96,0.02297100000000001,27.397029000000003,26.982971
1104,1266,7.304,7.346,-0.02807299999999989,27.332073,27.317927
1123,1289,7.691999999999999,6.928,0.10429699999999974,27.587703,27.032297
1134,1301,7.175,6.708,-0.005832999999999703,27.180833,26.702167
1148,1316,7.562,7.3950000000000005,-0.00626600000000007,27.568266,27.388734
1163,1333,7.3469999999999995,7.079000000000001,0.034202999999999914,27.312797,27.113203000000002
1175,1346,7.635000000000001,7.063000000000001,0.05537899999999985,27.579621000000003,27.118379
1189,1360,7.117999999999999,7.148,-0.03585300000000004,27.153852999999998,27.112147
1207,1378,7.404,7.133000000000001,0.05501899999999983,27.348981,27.188019000000004
1216,1389,7.188000000000001,6.9159999999999995,0.025292000000000477,27.162708000000002,26.941292
1235,1409,7.677000000000001,7.404000000000001,0.025565999999999763,27.651434,27.429566
1250,1429,7.161000000000001,6.584,0.05674700000000021,27.104253,26.640747
1258,1442,7.246,6.664999999999999,0.027332000000000137,27.218668,26.692332
1277,1461,7.736000000000001,7.252,0.017618999999999874,27.718381,27.269619
1293,1476,6.817,6.734000000000001,-0.013099000000000333,26.830099,26.720901
1303,1492,7.404000000000001,6.816999999999999,0.07849200000000014,27.325508,26.895492
1324,1511,7.289999999999999,7.103,-0.012121000000000218,27.302121,27.090879
1335,1524,7.074,6.7860000000000005,0.0383679999999999,27.035632,26.824368
1351,1541,6.957,6.567,0.03896000000000039,26.91804,26.60596
1366,1557,7.344,7.154000000000001,0.00875000000000007,27.335250000000002,27.16275
1379,1571,7.129,6.838000000000001,0.03924199999999954,27.089758,26.877242
1394,1588,7.417000000000001,7.125000000000001,0.029535000000000478,27.387465000000002,27.154535
1416,1609,6.799,6.404999999999999,0.040130999999999674,26.758869,26.445131
1430,1625,6.68,6.587000000000001,-0.00037699999999984274,26.680377,26.586623
1446,1642,7.0649999999999995,6.670000000000001,0.06061999999999959,27.004379999999998,26.730620000000002
1461,1658,6.949,6.653,0.020717000000000325,26.928282999999997,26.673717
1474,1674,7.034000000000001,6.636,0.04131700000000002,26.992683,26.677317
1489,1689,7.119999999999999,6.720000000000001,0.03171899999999988,27.088281,26.751718999999998
1505,1709,7.106,6.906000000000001,0.011519000000000425,27.094481000000002,26.917519
1519,1723,7.0920000000000005,6.286,0.09353099999999945,26.998469,26.379531
1530,1737,6.977,6.973,-0.04806699999999961,27.025067,26.924933
1544,1753,7.164000000000001,6.556,0.09374499999999991,27.070255000000003,26.649745
1557,1769,7.353,7.044,0.003455000000000045,27.349545000000003,27.047455
1573,1789,7.039,6.324999999999999,0.07497400000000011,26.964026,26.399974
1585,1804,6.823,6.104000000000001,0.0356979999999999,26.787302,26.139698
1603,1825,7.009,6.588000000000001,0.005520999999999807,27.003479000000002,26.593521
1622,1842,6.793000000000001,6.470999999999999,0.025643999999999972,26.767356,26.496644
1636,1859,6.171,6.050000000000001,0.015363999999999937,26.155635999999998,26.065364000000002
1651,1877,6.956999999999999,6.534000000000001,0.06638900000000031,26.890611,26.600389
1661,1890,7.044,6.417000000000001,0.057419999999999694,26.98658,26.474420000000002
1678,1908,7.132000000000001,6.602,0.027753000000000215,27.104247,26.629753
1693,1927,6.817,6.486000000000001,0.017684999999999822,26.799315,26.503685
1811,2050,6.802,6.369000000000001,0.04832000000000003,26.75368,26.41732
1821,2062,-3.3130000000000006,-4.152000000000001,0.07996499999999987,16.607034999999996,15.927964999999999
1837,2074,6.773,6.534,-0.0209959999999998,26.793996,26.513004
1850,2086,6.456,6.621,-0.001965000000000376,26.457965,26.619035
1866,2102,6.741999999999999,6.507,0.0790700000000002,26.662929999999996,26.58607
1884,2119,6.627000000000001,6.291,0.04960700000000025,26.577393,26.340607000000002
1900,2136,6.612,6.376,0.029642999999999843,26.582357000000002,26.405643
1914,2150,6.3950000000000005,6.26,0.029577000000000082,26.365423,26.289576999999998
1929,2166,6.680999999999999,6.345,0.06031399999999969,26.620686,26.405313999999997
1943,2180,6.465,6.128,0.040652000000000105,26.424348,26.168652
1958,2195,6.550000000000001,6.212,0.04099100000000011,26.509009,26.252991
3072,3305,6.635999999999999,6.4990000000000006,0.020726999999999572,26.615273,26.519727000000003
3081,3318,-103.973,-103.806,0.009956000000000131,0,0
3089,3329,5.816000000000001,4.977,0.14280100000000037,25.673199000000004,25.119801
3101,3343,5.805,5.566000000000001,-0.018160000000000523,25.82316,25.54784
3114,3356,5.8950000000000005,5.353000000000001,0.07298500000000005,25.822015,25.425985
3129,3371,5.38,5.138,0.01262700000000026,25.367372999999997,25.150627
3141,3384,5.668,5.426,0.04286899999999962,25.625131,25.468869
3155,3399,5.252000000000001,4.909,0.053413000000000606,25.198587000000003,24.962412999999998
3169,3413,5.438,5.194999999999999,0.033455999999999486,25.404543999999998,25.228456
3185,3428,5.626,5.282,0.05400100000000026,25.571999,25.336001
3194,3439,5.412,5.168,0.03404499999999984,25.377955,25.202045
3815,4059,5.8020000000000005,5.255,0.07519500000000007,25.726805,25.330195
3822,4067,-55.818,-55.964000000000006,0.004540000000000724,0,0
3835,4081,5.3740000000000006,5.128,0.05498599999999943,25.319014000000003,25.182986
3845,4088,4.76,4.716,0.024627999999999456,24.735371999999998,24.740628
3857,4099,5.352,5.3100000000000005,0.04466800000000011,25.307332,25.354668000000004
3871,4114,4.536,4.2940000000000005,0.06531000000000028,24.47069,24.35931
3882,4127,5.025,4.682,0.05585399999999954,24.969146,24.737854000000002
3897,4142,4.61,4.367,0.03589700000000021,24.574103,24.402897
3909,4156,4.9990000000000006,4.452999999999999,0.07704600000000045,24.921954000000003,24.530046
3923,4172,4.887,4.439,0.037295999999999746,24.849704,24.476296
3931,4182,4.774,4.324,0.047748000000000256,24.726252000000002,24.371747999999997
4970,5216,4.862,4.511,0.037899999999999996,24.8241,24.5489
4979,5225,-98.27100000000002,-98.11800000000001,-0.0032570000000008495,0,0
4993,5237,3.9179999999999997,3.7720000000000002,0.07748800000000067,23.840511999999997,23.849488
5001,5243,3.503,3.4590000000000005,0.037329999999999974,23.46567,23.49633
5016,5257,4.397,4.2540000000000004,0.05767199999999967,24.339328,24.311672
5032,5272,2.9770000000000003,3.037,0.027209000000000417,22.949791,23.064208999999998
5045,5282,3.26,3.3229999999999995,0.04714299999999963,23.212857,23.370143
5052,5291,4.152,3.8140000000000005,0.08828200000000033,24.063718,23.902282
5063,5305,4.245,3.603,0.07952799999999985,24.165472,23.682528
5079,5320,3.5309999999999997,3.3900000000000006,-0.0013320000000001248,23.532332,23.388668
5091,5332,3.5169999999999995,3.276,0.05910900000000014,23.457891,23.335109
5755,5990,3.604,3.4639999999999995,0.039048000000000097,23.564951999999998,23.503048
5768,6004,-62.160000000000004,-61.895,0.007977999999999881,0,0
5781,6016,3.129,2.692,0.11981700000000019,23.009183,22.811817
5791,6027,2.9160000000000004,2.6790000000000003,0.02965399999999972,22.886346,22.708654000000003
5800,6038,3.105,2.969,0.03958900000000009,23.065411,23.008589
5817,6055,3.1950000000000003,2.6559999999999997,0.09093100000000023,23.104069,22.746931
5830,6070,2.4779999999999998,2.34,0.01026800000000002,22.467732,22.350268
5847,6088,2.6630000000000003,2.4250000000000003,0.060705999999999795,22.602294,22.485706
5862,6102,2.547,2.0060000000000002,0.08185000000000009,22.46515,22.08785
5879,6119,2.7329999999999997,2.593,0.011189000000000018,22.721811,22.604189
5893,6133,2.7189999999999994,2.378,0.07193100000000005,22.647069000000002,22.449931
6927,7159,2.301,2.161,0.03166999999999995,22.269330000000004,22.19267
6940,7172,-100.03,-99.46200000000002,-0.020305999999998388,0,0
6951,7182,1.3529999999999998,1.222,0.12122399999999842,21.231776000000004,21.343224
6962,7194,2.245,2.1149999999999998,0.05135300000000026,22.193647000000002,22.166352999999997
6977,7207,1.631,1.3000000000000003,0.07208499999999972,21.558915,21.372085000000002
6989,7220,1.516,1.4869999999999999,0.02151200000000006,21.494487999999997,21.508512
7003,7233,1.8039999999999998,1.5749999999999997,0.07214099999999996,21.731859,21.647140999999998
7014,7244,1.7919999999999998,1.361,0.0729740000000002,21.719026000000003,21.433974
7037,7265,1.578,1.4480000000000002,0.022502999999999815,21.555497,21.470503
7047,7276,1.16,1.0309999999999997,0.052631000000000254,21.107369,21.083631
7062,7291,1.546,1.317,0.06305999999999981,21.48294,21.38006
8078,8304,1.6330000000000002,1.3029999999999997,0.06359099999999993,21.569409,21.366591
8091,8320,-99.582,-99.509,0.012715000000000864,0,0
8100,8329,0.605,0.17599999999999993,0.10414599999999956,20.500854,20.280146
8111,8341,0.794,0.46399999999999997,0.04427700000000001,20.749723,20.508277
8124,8355,0.7829999999999999,0.6540000000000001,0.03400499999999998,20.748995,20.688005
8138,8368,0.5700000000000001,0.34099999999999997,0.06443399999999982,20.505566,20.405434
8152,8383,0.6579999999999999,0.22699999999999987,0.0752670000000002,20.582733,20.302267
8167,8400,0.242,-0.09000000000000008,0.0454,20.1966,19.9554
8185,8416,0.42799999999999994,0.09499999999999997,0.05573400000000015,20.372266,20.150734
8200,8430,0.11099999999999977,0.08000000000000007,0.02516300000000008,20.085837,20.105162999999997
8212,8442,0.09399999999999986,-0.03600000000000003,0.06549200000000006,20.028508000000002,20.029491999999998
8903,9128,0.5819999999999999,0.2509999999999999,0.07622399999999974,20.505776,20.327224
8917,9143,-67.706,-67.432,-0.005255000000000017,0,0
8927,9150,-0.522,-0.5460000000000002,0.08536700000000022,19.392633,19.539367000000002
8942,9165,0.16899999999999993,0.04599999999999993,0.06568900000000005,20.103311,20.111689
8955,9179,-0.5470000000000002,-0.77,0.06611199999999984,19.386888,19.296112
8973,9195,-0.46199999999999997,-0.6849999999999999,0.05633500000000004,19.481665,19.371335000000002
8986,9208,-0.47699999999999987,-0.801,0.06685999999999995,19.45614,19.26586
9002,9227,-0.492,-0.6150000000000001,0.036581999999999976,19.471418,19.421582
9018,9243,-0.40600000000000014,-0.8310000000000001,0.08760900000000035,19.506391,19.256609
9032,9258,-0.8240000000000001,-0.8470000000000001,0.016829999999999935,19.15917,19.169829999999997
9044,9274,-0.2360000000000002,-0.762,0.10835900000000004,19.655641,19.346359
9989,10250,-0.45000000000000007,-1.181,0.07949500000000022,19.470505,18.898495
